# dimensionless total lensed [l(l+1)/2pi] C_l's
# for l=2 to 2500, i.e. number of multipoles equal to 2499
#
# -> if you prefer output in CAMB/HealPix/LensPix units/order, set 'format' to 'camb' in input file
# -> if you don't want to see such a header, set 'headers' to 'no' in input file
# -> for CMB lensing (phi), these are C_l^phi-phi for the lensing potential.
#    Remember the conversion factors:
#    C_l^dd (deflection) = l(l+1) C_l^phi-phi
#    C_l^gg (shear/convergence) = 1/4 (l(l+1))^2 C_l^phi-phi
#
# 1:l     2:TT                     3:EE                     4:TE                     5:BB                     6:phiphi                 7:TPhi                   8:Ephi               
    2       1.406442347170e-10       3.148837291467e-15       3.061691750360e-13       2.606320043531e-19       8.313393317591e-09       4.637462043259e-10      -1.604888871887e-12 
    3       1.330041105526e-10       4.029260143270e-15       3.445727772925e-13       5.213534976884e-19       5.092402395630e-09       3.271734109123e-10      -1.212475202257e-12 
    4       1.258803626209e-10       3.480607593982e-15       3.228923121450e-13       8.691199080029e-19       3.524945821206e-09       2.470252354919e-10      -7.904269780166e-13 
    5       1.205721401889e-10       2.324919353841e-15       2.763335434665e-13       1.304046546361e-18       2.622382594945e-09       1.947089937880e-10      -4.359924120020e-13 
    6       1.169124504008e-10       1.312174709679e-15       2.247366235724e-13       1.826274182552e-18       2.043158345189e-09       1.581428392857e-10      -1.757608059810e-13 
    7       1.145294141901e-10       7.274997794753e-16       1.793521147559e-13       2.435966926964e-18       1.644793114617e-09       1.314408251184e-10      -1.069344874914e-14 
    8       1.131400776779e-10       4.863356952043e-16       1.449271280525e-13       3.133309811508e-18       1.356837745476e-09       1.112833972328e-10       7.262221842575e-14 
    9       1.124091038838e-10       3.995145379674e-16       1.223879443040e-13       3.918506130065e-18       1.140729805201e-09       9.559200280823e-11       9.489452041078e-14 
   10       1.122531223116e-10       3.457127206873e-16       1.104610737767e-13       4.791774603943e-18       9.737187183001e-10       8.308377844919e-11       7.892370885062e-14 
   11       1.124794848570e-10       2.968750169849e-16       1.068432748469e-13       5.753346440891e-18       8.335220681358e-10       7.369631138760e-11       4.580466919405e-14 
   12       1.130171280068e-10       2.667329754135e-16       1.091006588436e-13       6.803462357079e-18       7.284403863639e-10       6.533521284309e-11       1.099583000141e-14 
   13       1.138205207554e-10       2.643929914387e-16       1.150475177782e-13       7.942369630375e-18       6.421653452962e-10       5.825136818724e-11      -1.563048704893e-14 
   14       1.148165951867e-10       2.842291327130e-16       1.229790808599e-13       9.170319250030e-18       5.703777996788e-10       5.232688303424e-11      -2.975910486406e-14 
   15       1.159486121927e-10       3.176136349852e-16       1.318097875610e-13       1.048756322281e-17       5.099493889048e-10       4.718868025574e-11      -3.223187081713e-14 
   16       1.172331371759e-10       3.627106952518e-16       1.409306799656e-13       1.189435208887e-17       4.585658571574e-10       4.273260294176e-11      -2.658276307970e-14 
   17       1.186335053614e-10       4.234780162968e-16       1.501650291244e-13       1.339093269248e-17       4.144826388446e-10       3.894507475226e-11      -1.717180766073e-14 
   18       1.201366307588e-10       5.036659726185e-16       1.595912294419e-13       1.497754614177e-17       3.762210918846e-10       3.561896081192e-11      -8.266511762178e-15 
   19       1.217396045345e-10       6.035420600839e-16       1.693212481867e-13       1.665442669280e-17       3.431630577428e-10       3.268794958340e-11      -2.119631773703e-15 
   20       1.233842395588e-10       7.217548236715e-16       1.794324675212e-13       1.842179933036e-17       3.140476612288e-10       3.007883090490e-11      -1.724107759683e-16 
   21       1.250911159698e-10       8.581876844573e-16       1.898663336800e-13       2.027988039122e-17       2.884166431695e-10       2.778039847709e-11      -1.875900936610e-15 
   22       1.268721719112e-10       1.012945269604e-15       2.004590401936e-13       2.222887506186e-17       2.656526011372e-10       2.575915707270e-11      -5.649691134226e-15 
   23       1.287158848301e-10       1.186649381765e-15       2.109409516144e-13       2.426897945800e-17       2.454506729378e-10       2.396365602088e-11      -9.951680687202e-15 
   24       1.305846566121e-10       1.379959270236e-15       2.209741888141e-13       2.640037771384e-17       2.273494440421e-10       2.231812453835e-11      -1.317262890950e-14 
   25       1.324909705228e-10       1.593361657730e-15       2.303123764976e-13       2.862324458268e-17       2.111032748018e-10       2.081902528596e-11      -1.468443526731e-14 
   26       1.344480860914e-10       1.827382771027e-15       2.387455128754e-13       3.093774340449e-17       1.963940934495e-10       1.947084853881e-11      -1.430089523393e-14 
   27       1.364634344246e-10       2.083448935440e-15       2.462006805283e-13       3.334403251482e-17       1.831456326776e-10       1.826479744391e-11      -1.248889764174e-14 
   28       1.385236364806e-10       2.363410064598e-15       2.526640829968e-13       3.584225886865e-17       1.711973178750e-10       1.717028047591e-11      -1.011628825490e-14 
   29       1.406004957392e-10       2.669137160542e-15       2.581453676837e-13       3.843255808555e-17       1.602589504533e-10       1.614545864537e-11      -8.145192203958e-15 
   30       1.426988856178e-10       3.001789958424e-15       2.626655409197e-13       4.111506543416e-17       1.502702191931e-10       1.519073814563e-11      -6.892449266677e-15 
   31       1.448241288774e-10       3.362253229930e-15       2.662676942489e-13       4.388990790623e-17       1.411569547891e-10       1.431426694700e-11      -6.484584319453e-15 
   32       1.469732600285e-10       3.751362671665e-15       2.689884484053e-13       4.675720344625e-17       1.327749287771e-10       1.351732292837e-11      -6.964338777699e-15 
   33       1.491534301973e-10       4.170077471810e-15       2.707404185264e-13       4.971707042127e-17       1.250784994285e-10       1.279383694351e-11      -8.009287274185e-15 
   34       1.513680320094e-10       4.619361893822e-15       2.713850613256e-13       5.276962089216e-17       1.179995223282e-10       1.212926294497e-11      -9.096386511147e-15 
   35       1.536138430404e-10       5.100132922865e-15       2.707805985224e-13       5.591496017004e-17       1.114326417636e-10       1.150571220054e-11      -9.702702567563e-15 
   36       1.558917476287e-10       5.613248581772e-15       2.688482952062e-13       5.915319504386e-17       1.053608405342e-10       1.092220629345e-11      -9.781472061234e-15 
   37       1.581980873059e-10       6.159508371454e-15       2.655280683246e-13       6.248442804331e-17       9.976511474402e-11       1.038062118249e-11      -9.448068690966e-15 
   38       1.605207103064e-10       6.739650770171e-15       2.607609412991e-13       6.590875508930e-17       9.458651522358e-11       9.879953871791e-12      -8.857629711998e-15 
   39       1.628453080353e-10       7.354368522145e-15       2.544994439846e-13       6.942626649198e-17       8.974741782384e-11       9.416996693921e-12      -8.182635499238e-15 
   40       1.651791402845e-10       8.004371438065e-15       2.467430602697e-13       7.303705067880e-17       8.523302398125e-11       8.989339676198e-12      -7.529357723216e-15 
   41       1.675339431349e-10       8.690337669003e-15       2.375148803367e-13       7.674119151426e-17       8.103148033420e-11       8.592908103083e-12      -6.997803702676e-15 
   42       1.699191036196e-10       9.412893032567e-15       2.268530416886e-13       8.053876723161e-17       7.710955982880e-11       8.220874638365e-12      -6.705567225311e-15 
   43       1.723407879921e-10       1.017261435030e-14       2.147911076809e-13       8.442984951858e-17       7.342495779713e-11       7.865800268824e-12      -6.751279055297e-15 
   44       1.747997684818e-10       1.097004759841e-14       2.012899872423e-13       8.841450054718e-17       6.997201722077e-11       7.527369276468e-12      -7.089006515481e-15 
   45       1.772923733334e-10       1.180569051047e-14       1.862861427845e-13       9.249277493730e-17       6.674723288783e-11       7.206700037930e-12      -7.616351479981e-15 
   46       1.798106283306e-10       1.267998438234e-14       1.697096949107e-13       9.666472044306e-17       6.373552216524e-11       6.904130902216e-12      -8.207228852549e-15 
   47       1.823418989422e-10       1.359331156083e-14       1.514839339717e-13       1.009303778504e-16       6.090932220964e-11       6.619152440387e-12      -8.710477109689e-15 
   48       1.848737199750e-10       1.454598946533e-14       1.315368973993e-13       1.052897797199e-16       5.823707912888e-11       6.350741243982e-12      -8.990096121710e-15 
   49       1.874107294107e-10       1.553825651995e-14       1.098411005225e-13       1.097429464360e-16       5.571365169488e-11       6.098630670543e-12      -9.062615288990e-15 
   50       1.899618931769e-10       1.657027794100e-14       8.638416617954e-14       1.142898888679e-16       5.333692697217e-11       5.862281903031e-12      -8.996060558375e-15 
   51       1.925356435139e-10       1.764214623573e-14       6.115786079846e-14       1.189306092696e-16       5.109876346298e-11       5.640467575972e-12      -8.872424276854e-15 
   52       1.951397857896e-10       1.875387851403e-14       3.415822155331e-14       1.236651011186e-16       4.898456749928e-11       5.431224512305e-12      -8.788399575382e-15 
   53       1.977804955773e-10       1.990545632386e-14       5.382151150807e-15       1.284933514324e-16       4.697787908105e-11       5.232410950353e-12      -8.831611215758e-15 
   54       2.004592216232e-10       2.109696337120e-14      -2.518411849954e-14       1.334153487872e-16       4.507648889230e-11       5.043655238568e-12      -9.000442069436e-15 
   55       2.031748240907e-10       2.232847852858e-14      -5.755623482459e-14       1.384310770801e-16       4.327972737253e-11       4.864825860814e-12      -9.264870516502e-15 
   56       2.059242862155e-10       2.360003552632e-14      -9.174847235710e-14       1.435405131754e-16       4.158360927178e-11       4.695449383231e-12      -9.588883011031e-15 
   57       2.087025829766e-10       2.491162204732e-14      -1.277737536870e-13       1.487436268473e-16       3.998062008243e-11       4.534688536592e-12      -9.930181062946e-15 
   58       2.115025497670e-10       2.626317882169e-14      -1.656436704122e-13       1.540403807220e-16       3.845950247089e-11       4.381320298657e-12      -1.023988821987e-14 
   59       2.143172903249e-10       2.765452446396e-14      -2.053640452635e-13       1.594307384361e-16       3.700835693422e-11       4.234092084255e-12      -1.047353339071e-14 
   60       2.171483517997e-10       2.908511165732e-14      -2.469203674016e-13       1.649146914525e-16       3.562526967901e-11       4.092936688527e-12      -1.062764484359e-14 
   61       2.199992194483e-10       3.055421264750e-14      -2.902890057792e-13       1.704922383812e-16       3.430977978722e-11       3.958001254785e-12      -1.071115165879e-14 
   62       2.228728999706e-10       3.206098516935e-14      -3.354412430365e-13       1.761633775281e-16       3.305968284566e-11       3.829285059906e-12      -1.073494200306e-14 
   63       2.257718762573e-10       3.360446902429e-14      -3.823431453056e-13       1.819281071158e-16       3.187092972434e-11       3.706630413902e-12      -1.071195236035e-14 
   64       2.286980621369e-10       3.518358265789e-14      -4.309554320147e-13       1.877864255049e-16       3.073752535486e-11       3.589713559482e-12      -1.065725676252e-14 
   65       2.316529453187e-10       3.679722746465e-14      -4.812410752732e-13       1.937383425683e-16       2.965318444873e-11       3.478147210279e-12      -1.058511683738e-14 
   66       2.346381530522e-10       3.844463406486e-14      -5.331902610813e-13       1.997839161187e-16       2.861693357330e-11       3.371833846699e-12      -1.049920538478e-14 
   67       2.376549257249e-10       4.012508346191e-14      -5.868004973560e-13       2.059232236136e-16       2.762851806116e-11       3.270671195230e-12      -1.040046571362e-14 
   68       2.407038999969e-10       4.183780538449e-14      -6.420694352226e-13       2.121563522059e-16       2.668669865578e-11       3.174441326043e-12      -1.028997226717e-14 
   69       2.437850688124e-10       4.358197787750e-14      -6.989949550316e-13       2.184833992762e-16       2.578919943506e-11       3.082804675315e-12      -1.016893484164e-14 
   70       2.468977414107e-10       4.535672689292e-14      -7.575752523752e-13       2.249044729664e-16       2.493265573493e-11       2.995294067556e-12      -1.003870280487e-14 
   71       2.500405033384e-10       4.716112588063e-14      -8.178089241037e-13       2.314196927123e-16       2.411256207280e-11       2.911308737930e-12      -9.900769314904e-15 
   72       2.532119025653e-10       4.899416413235e-14      -8.796886654336e-13       2.380291955423e-16       2.332443217023e-11       2.830265567595e-12      -9.756755865841e-15 
   73       2.564127491657e-10       5.085464568767e-14      -9.431807694811e-13       2.447331551887e-16       2.256765252903e-11       2.752099681285e-12      -9.608353116287e-15 
   74       2.596441868507e-10       5.274127019334e-14      -1.008241829789e-12       2.515317676249e-16       2.184227788249e-11       2.676849584196e-12      -9.457376273751e-15 
   75       2.629069829631e-10       5.465266132740e-14      -1.074824721741e-12       2.584252462784e-16       2.114786064855e-11       2.604506115232e-12      -9.305787466450e-15 
   76       2.662015050670e-10       5.658736567664e-14      -1.142878542711e-12       2.654138226952e-16       2.048342652679e-11       2.535010058659e-12      -9.155699512774e-15 
   77       2.695276975364e-10       5.854385161408e-14      -1.212348552216e-12       2.724977472045e-16       1.984745009553e-11       2.468249755777e-12      -9.009379690768e-15 
   78       2.728850581453e-10       6.052050817644e-14      -1.283176112065e-12       2.796772895836e-16       1.923783040882e-11       2.404058716579e-12      -8.869253507600e-15 
   79       2.762726146563e-10       6.251564394160e-14      -1.355298626512e-12       2.869527397218e-16       1.865186659347e-11       2.342213231412e-12      -8.737908469034e-15 
   80       2.796894046448e-10       6.452753908470e-14      -1.428654256953e-12       2.943244027286e-16       1.808692944966e-11       2.282491029574e-12      -8.617515955312e-15 
   81       2.831360624379e-10       6.655461442741e-14      -1.503197140623e-12       3.017925818150e-16       1.754266425924e-11       2.224864241143e-12      -8.507972931119e-15 
   82       2.866134663264e-10       6.859528983501e-14      -1.578884717988e-12       3.093575936381e-16       1.701912777346e-11       2.169335743003e-12      -8.408442883969e-15 
   83       2.901222459346e-10       7.064793350972e-14      -1.655673221077e-12       3.170197741478e-16       1.651611485112e-11       2.115879849906e-12      -8.317902155583e-15 
   84       2.936627681289e-10       7.271086185292e-14      -1.733517702047e-12       3.247794791480e-16       1.603314694462e-11       2.064441056628e-12      -8.235132935547e-15 
   85       2.972351229257e-10       7.478233932741e-14      -1.812372061750e-12       3.326370848586e-16       1.556946058591e-11       2.014932780133e-12      -8.158716254985e-15 
   86       3.008391094004e-10       7.686057831968e-14      -1.892189078309e-12       3.405929884774e-16       1.512399587250e-11       1.967236101734e-12      -8.087024980220e-15 
   87       3.044742215956e-10       7.894373900213e-14      -1.972920435677e-12       3.486476087410e-16       1.469538495343e-11       1.921198509258e-12      -8.018216806441e-15 
   88       3.081396344295e-10       8.102992919537e-14      -2.054516752213e-12       3.568013864875e-16       1.428194051529e-11       1.876632639204e-12      -7.950227251371e-15 
   89       3.118345360937e-10       8.311723231881e-14      -2.136926277511e-12       3.650547794945e-16       1.388205814610e-11       1.833362489466e-12      -7.881239902565e-15 
   90       3.155592157185e-10       8.520379656757e-14      -2.220090686349e-12       3.734082448425e-16       1.349552086012e-11       1.791373107215e-12      -7.811196970389e-15 
   91       3.193141211583e-10       8.728775953586e-14      -2.303948674516e-12       3.818622548075e-16       1.312237894900e-11       1.750682173957e-12      -7.740513885430e-15 
   92       3.230995189146e-10       8.936722165299e-14      -2.388437240305e-12       3.904173028064e-16       1.276254908156e-11       1.711294086260e-12      -7.669623280505e-15 
   93       3.269154852354e-10       9.144024646638e-14      -2.473491693136e-12       3.990739038732e-16       1.241580899016e-11       1.673199409080e-12      -7.598975134191e-15 
   94       3.307618972143e-10       9.350486092472e-14      -2.559045662166e-12       4.078325951353e-16       1.208179215712e-11       1.636374329092e-12      -7.529036914363e-15 
   95       3.346384238897e-10       9.555905566089e-14      -2.645031104914e-12       4.166939362889e-16       1.175998250114e-11       1.600780108026e-12      -7.460293721721e-15 
   96       3.385445173446e-10       9.760078527515e-14      -2.731378315874e-12       4.256585100756e-16       1.144970906368e-11       1.566362535993e-12      -7.393248433330e-15 
   97       3.424794038053e-10       9.962796861807e-14      -2.818015935133e-12       4.347269227578e-16       1.115014069540e-11       1.533051384821e-12      -7.328421846147e-15 
   98       3.464420747411e-10       1.016384890737e-13      -2.904870956990e-12       4.438998045948e-16       1.086028074256e-11       1.500759861382e-12      -7.266352820556e-15 
   99       3.504315419295e-10       1.036302446757e-13      -2.991870047902e-12       4.531778076690e-16       1.057919581606e-11       1.469405288671e-12      -7.207455796143e-15 
  100       3.544476631159e-10       1.056013059445e-13      -3.078943694703e-12       4.625615979832e-16       1.030675055731e-11       1.438975673118e-12      -7.151570000993e-15 
  101       3.584904173105e-10       1.075497810362e-13      -3.166022662688e-12       4.720518631227e-16       1.004296755873e-11       1.409471594278e-12      -7.098346361370e-15 
  102       3.625596456266e-10       1.094737687799e-13      -3.253036762879e-12       4.816493152437e-16       9.787800120908e-12       1.380885532546e-12      -7.047382867898e-15 
  103       3.666550455797e-10       1.113713595645e-13      -3.339914876510e-12       4.913546915174e-16       9.541129776348e-12       1.353201579794e-12      -6.998222990266e-15 
  104       3.707761653858e-10       1.132406362260e-13      -3.426584979521e-12       5.011687545737e-16       9.302763813270e-12       1.326395150006e-12      -6.950354091944e-15 
  105       3.749223982607e-10       1.150796749348e-13      -3.512974167042e-12       5.110922929449e-16       9.072432799379e-12       1.300432689920e-12      -6.903205844893e-15 
  106       3.790929767186e-10       1.168865460822e-13      -3.599008677880e-12       5.211261215098e-16       8.849788105632e-12       1.275271389662e-12      -6.856148644280e-15 
  107       3.832869668715e-10       1.186593151681e-13      -3.684613919012e-12       5.312710819373e-16       8.634399430020e-12       1.250858893382e-12      -6.808492023183e-15 
