# dimensionless total [l(l+1)/2pi] C_l's
# for l=2 to 3000, i.e. number of multipoles equal to 2999
#
# -> if you prefer output in CAMB/HealPix/LensPix units/order, set 'format' to 'camb' in input file
# -> if you don't want to see such a header, set 'headers' to 'no' in input file
# -> for CMB lensing (phi), these are C_l^phi-phi for the lensing potential.
#    Remember the conversion factors:
#    C_l^dd (deflection) = l(l+1) C_l^phi-phi
#    C_l^gg (shear/convergence) = 1/4 (l(l+1))^2 C_l^phi-phi
#
# 1:l     2:TT                     3:EE                     4:TE                     5:BB                     6:phiphi                 7:TPhi                   8:Ephi               
    2       1.397068408725e-10       4.132485078749e-15       3.531682512084e-13       0.000000000000e+00       8.371787977290e-09       4.580789477168e-10      -1.841785083391e-12 
    3       1.320459589553e-10       5.288677142396e-15       3.959644826532e-13       0.000000000000e+00       5.116016054447e-09       3.238196728487e-10      -1.394205087705e-12 
    4       1.248627095604e-10       4.571507400616e-15       3.700058903066e-13       0.000000000000e+00       3.542680175318e-09       2.447429808634e-10      -9.120210946111e-13 
    5       1.194911910379e-10       3.048795492280e-15       3.150254734660e-13       0.000000000000e+00       2.635978942970e-09       1.930820562289e-10      -5.065664238290e-13 
    6       1.157987420678e-10       1.705050930140e-15       2.537764620790e-13       0.000000000000e+00       2.053577902998e-09       1.569331799981e-10      -2.080906125300e-13 
    7       1.133742098607e-10       9.223272475876e-16       1.994282581940e-13       0.000000000000e+00       1.652815329030e-09       1.303976969389e-10      -1.788414612666e-14 
    8       1.119451007107e-10       5.960028650204e-16       1.576943982981e-13       0.000000000000e+00       1.363078870222e-09       1.102954032842e-10       7.906776902294e-14 
    9       1.112708717487e-10       4.787135850414e-16       1.297877039860e-13       0.000000000000e+00       1.145786182586e-09       9.474197425574e-11       1.061075264862e-13 
   10       1.110933293819e-10       4.078970270320e-16       1.143758279286e-13       0.000000000000e+00       9.780374626787e-10       8.244642637209e-11       8.906688338798e-14 
   11       1.113754940249e-10       3.426727160886e-16       1.087993903690e-13       0.000000000000e+00       8.376100767549e-10       7.325123744246e-11       5.202378629402e-14 
   12       1.119494350907e-10       2.985382769579e-16       1.100131164056e-13       0.000000000000e+00       7.319496528177e-10       6.472328655648e-11       1.240664363799e-14 
   13       1.127585028249e-10       2.864584866207e-16       1.153802415154e-13       0.000000000000e+00       6.452014505332e-10       5.780790470071e-11      -1.778916529496e-14 
   14       1.137915978063e-10       2.986605697646e-16       1.228736542483e-13       0.000000000000e+00       5.730216344293e-10       5.184719473642e-11      -3.429109745194e-14 
   15       1.150014225129e-10       3.236055524754e-16       1.311580007790e-13       0.000000000000e+00       5.122645070329e-10       4.680172541237e-11      -3.737736691446e-14 
   16       1.163108099261e-10       3.588512808788e-16       1.396038702491e-13       0.000000000000e+00       4.606025970652e-10       4.243991008168e-11      -3.089745953010e-14 
   17       1.177551249351e-10       4.096804930420e-16       1.481041044858e-13       0.000000000000e+00       4.162814760659e-10       3.862664107050e-11      -2.000864923564e-14 
   18       1.192786829704e-10       4.812824634205e-16       1.567465116936e-13       0.000000000000e+00       3.778146123205e-10       3.531993699454e-11      -9.587231233616e-15 
   19       1.208948264925e-10       5.740846920661e-16       1.657340152910e-13       0.000000000000e+00       3.445795212491e-10       3.246505181042e-11      -2.238115356691e-15 
   20       1.225940971443e-10       6.862974111726e-16       1.752713805297e-13       0.000000000000e+00       3.153085980888e-10       2.992377744542e-11       3.180726991207e-16 
   21       1.243693676909e-10       8.172610015144e-16       1.853350124753e-13       0.000000000000e+00       2.895426087602e-10       2.764703978384e-11      -1.359964221593e-15 
   22       1.261854283733e-10       9.664078195075e-16       1.957438175095e-13       0.000000000000e+00       2.666615095916e-10       2.558389082661e-11      -5.532382379400e-15 
   23       1.280563176479e-10       1.134007073107e-15       2.061468392606e-13       0.000000000000e+00       2.463512051406e-10       2.373820219306e-11      -1.045523252971e-14 
   24       1.299882358038e-10       1.320400166158e-15       2.160986552730e-13       0.000000000000e+00       2.281439518522e-10       2.210409288323e-11      -1.427042339443e-14 
   25       1.319730680043e-10       1.525660227388e-15       2.253192117368e-13       0.000000000000e+00       2.118257465258e-10       2.064246300445e-11      -1.615864657516e-14 
   26       1.339852005585e-10       1.750001773730e-15       2.335834629199e-13       0.000000000000e+00       1.971010096950e-10       1.929374452985e-11      -1.580302373292e-14 
   27       1.360311605269e-10       1.995385712282e-15       2.407875237305e-13       0.000000000000e+00       1.837936631175e-10       1.805753576576e-11      -1.383733557463e-14 
   28       1.381171095802e-10       2.264316589416e-15       2.468932485951e-13       0.000000000000e+00       1.716750676938e-10       1.694174522870e-11      -1.127877475136e-14 
   29       1.402502547408e-10       2.558316719665e-15       2.519572218454e-13       0.000000000000e+00       1.606834392880e-10       1.594086804653e-11      -8.764141887355e-15 
   30       1.424249965448e-10       2.878611292461e-15       2.561013579102e-13       0.000000000000e+00       1.507006119872e-10       1.503341809053e-11      -6.921963080474e-15 
   31       1.446252332066e-10       3.226339073227e-15       2.594516279001e-13       0.000000000000e+00       1.415228557463e-10       1.418968898642e-11      -6.331065615992e-15 
   32       1.468553731058e-10       3.602296810866e-15       2.619608049247e-13       0.000000000000e+00       1.331029560563e-10       1.340483100331e-11      -6.818999840726e-15 
   33       1.491183083882e-10       4.007081430645e-15       2.635185346881e-13       0.000000000000e+00       1.253816852792e-10       1.267658673863e-11      -7.888165554334e-15 
   34       1.514094273584e-10       4.441272980369e-15       2.639988127321e-13       0.000000000000e+00       1.182513203020e-10       1.199886039828e-11      -8.981591185282e-15 
   35       1.537282971562e-10       4.905882920829e-15       2.632717549867e-13       0.000000000000e+00       1.116754246571e-10       1.137149737844e-11      -9.819364141086e-15 
   36       1.560692560306e-10       5.402058484003e-15       2.611935393332e-13       0.000000000000e+00       1.056012169128e-10       1.079310736719e-11      -1.017144266466e-14 
   37       1.584228587516e-10       5.930881459289e-15       2.576327861823e-13       0.000000000000e+00       9.994963074069e-11       1.025943519968e-11      -9.851418907306e-15 
   38       1.607947491278e-10       6.493080181178e-15       2.525762878711e-13       0.000000000000e+00       9.470611547598e-11       9.768012516106e-12      -9.007952761784e-15 
   39       1.631918874771e-10       7.089215800456e-15       2.460588578936e-13       0.000000000000e+00       8.985411514330e-11       9.314478712424e-12      -7.933265101480e-15 
   40       1.656168508063e-10       7.719751271049e-15       2.381366730824e-13       0.000000000000e+00       8.534745111737e-11       8.890961970009e-12      -6.991056147546e-15 
   41       1.680691348972e-10       8.385128440337e-15       2.288647453727e-13       0.000000000000e+00       8.112642403803e-11       8.488628724639e-12      -6.521273643104e-15 
   42       1.705507882521e-10       9.086044726095e-15       2.182174336465e-13       0.000000000000e+00       7.717863665149e-11       8.107031234745e-12      -6.506039516095e-15 
   43       1.730617594536e-10       9.823255847916e-15       2.061442146291e-13       0.000000000000e+00       7.349362074969e-11       7.747312141312e-12      -6.802738090222e-15 
   44       1.755978714241e-10       1.059749959075e-14       1.925909124933e-13       0.000000000000e+00       7.004458350509e-11       7.409531490307e-12      -7.232267461027e-15 
   45       1.781533918757e-10       1.140944901463e-14       1.775027379260e-13       0.000000000000e+00       6.679798258593e-11       7.092941194421e-12      -7.618574963686e-15 
   46       1.807305629639e-10       1.225955684027e-14       1.608353308313e-13       0.000000000000e+00       6.374872773332e-11       6.797133170849e-12      -7.926671619339e-15 
   47       1.833322695735e-10       1.314816350329e-14       1.425464111212e-13       0.000000000000e+00       6.089329230141e-11       6.521070660194e-12      -8.162043084226e-15 
   48       1.859591263292e-10       1.407553611083e-14       1.225925113887e-13       0.000000000000e+00       5.821909623442e-11       6.262674283073e-12      -8.332589499056e-15 
   49       1.886092649347e-10       1.504186517206e-14       1.009288151761e-13       0.000000000000e+00       5.570383269943e-11       6.018747103104e-12      -8.448777444067e-15 
   50       1.912799829726e-10       1.604729192508e-14       7.751421130392e-14       0.000000000000e+00       5.332219068239e-11       5.785891372415e-12      -8.524517898560e-15 
   51       1.939737112878e-10       1.709200664799e-14       5.232844946256e-14       0.000000000000e+00       5.106973621884e-11       5.563725980633e-12      -8.579728530794e-15 
   52       1.966932987874e-10       1.817617138162e-14       2.535936174869e-14       0.000000000000e+00       4.894434949684e-11       5.352412812825e-12      -8.638729576359e-15 
   53       1.994401704559e-10       1.929988987896e-14      -3.401864653975e-15       0.000000000000e+00       4.693907784666e-11       5.151713798603e-12      -8.729760325792e-15 
   54       2.022142022935e-10       2.046320577546e-14      -3.396060374482e-14       0.000000000000e+00       4.504181041890e-11       4.960962642519e-12      -8.885165244557e-15 
   55       2.050145820879e-10       2.166611267516e-14      -6.632026873857e-14       0.000000000000e+00       4.323897450225e-11       4.779335575733e-12      -9.131278854354e-15 
   56       2.078429286413e-10       2.290859153519e-14      -1.004873679526e-13       0.000000000000e+00       4.152844505199e-11       4.606807138238e-12      -9.454711413125e-15 
   57       2.107007283704e-10       2.419057936342e-14      -1.364675582509e-13       0.000000000000e+00       3.990927233870e-11       4.443382317029e-12      -9.828013877935e-15 
   58       2.135883325966e-10       2.551195678058e-14      -1.742641709408e-13       0.000000000000e+00       3.837777632254e-11       4.288802069901e-12      -1.021903480301e-14 
   59       2.165048708938e-10       2.687254665469e-14      -2.138781888902e-13       0.000000000000e+00       3.692737801864e-11       4.142526706025e-12      -1.059070511278e-14 
   60       2.194481644346e-10       2.827211273565e-14      -2.553082236461e-13       0.000000000000e+00       3.554843086249e-11       4.003719266530e-12      -1.090082287482e-14 
   61       2.224158618698e-10       2.971031245154e-14      -2.985501631459e-13       0.000000000000e+00       3.423090032359e-11       3.871479281650e-12      -1.111173716182e-14 
   62       2.254093409322e-10       3.118654600539e-14      -3.435960742141e-13       0.000000000000e+00       3.297348709715e-11       3.745642953585e-12      -1.122242657335e-14 
   63       2.284305328080e-10       3.270007082931e-14      -3.904350119933e-13       0.000000000000e+00       3.177626178508e-11       3.626133909212e-12      -1.124327192724e-14 
   64       2.314807299695e-10       3.425004166984e-14      -4.390532949396e-13       0.000000000000e+00       3.063792063759e-11       3.512720169270e-12      -1.118688945037e-14 
   65       2.345605383118e-10       3.583550776795e-14      -4.894344714882e-13       0.000000000000e+00       2.955570729135e-11       3.405005473192e-12      -1.106822964232e-14 
   66       2.376698292905e-10       3.745541003923e-14      -5.415592867200e-13       0.000000000000e+00       2.852533450761e-11       3.302420603944e-12      -1.090467613895e-14 
   67       2.408076920587e-10       3.910857825398e-14      -5.954056490274e-13       0.000000000000e+00       2.754090591041e-11       3.204214712859e-12      -1.071614457609e-14 
   68       2.439731226088e-10       4.079383587730e-14      -6.509499396553e-13       0.000000000000e+00       2.659649122194e-11       3.109650184612e-12      -1.052130257644e-14 
   69       2.471673603363e-10       4.251034556093e-14      -7.081713239617e-13       0.000000000000e+00       2.569139755067e-11       3.018652474247e-12      -1.032511930656e-14 
   70       2.503919411180e-10       4.425732891302e-14      -7.670482578630e-13       0.000000000000e+00       2.482583051956e-11       2.931276964796e-12      -1.012895914400e-14 
   71       2.536479737044e-10       4.603396496702e-14      -8.275572232460e-13       0.000000000000e+00       2.399929994594e-11       2.847513670274e-12      -9.934237004588e-15 
   72       2.569361107062e-10       4.783939011520e-14      -8.896727289786e-13       0.000000000000e+00       2.321058386863e-11       2.767283766146e-12      -9.742418001963e-15 
   73       2.602565195809e-10       4.967269804224e-14      -9.533673119206e-13       0.000000000000e+00       2.245769257503e-11       2.690436119794e-12      -9.555017107250e-15 
   74       2.636088536192e-10       5.153293965881e-14      -1.018611537934e-12       0.000000000000e+00       2.173783262814e-11       2.616743820986e-12      -9.373598808653e-15 
   75       2.669922229310e-10       5.341912303508e-14      -1.085374002896e-12       0.000000000000e+00       2.104737089371e-11       2.545900712336e-12      -9.199776771069e-15 
   76       2.704057102060e-10       5.533016495480e-14      -1.153621064519e-12       0.000000000000e+00       2.038273655126e-11       2.477601123949e-12      -9.035036239596e-15 
   77       2.738500907105e-10       5.726473552506e-14      -1.223315979145e-12       0.000000000000e+00       1.974339654337e-11       2.411803533064e-12      -8.880164613739e-15 
   78       2.773263746850e-10       5.922138497798e-14      -1.294419608644e-12       0.000000000000e+00       1.912935987924e-11       2.348508903957e-12      -8.735715934825e-15 
   79       2.808352728427e-10       6.119858849511e-14      -1.366890671206e-12       0.000000000000e+00       1.854027131783e-11       2.287680014256e-12      -8.602175019411e-15 
   80       2.843771785264e-10       6.319474514891e-14      -1.440685736829e-12       0.000000000000e+00       1.797539462905e-11       2.229239691579e-12      -8.479953484118e-15 
   81       2.879521498662e-10       6.520817684423e-14      -1.515759222808e-12       0.000000000000e+00       1.743359585497e-11       2.173069050170e-12      -8.369385770469e-15 
   82       2.915598919367e-10       6.723712725986e-14      -1.592063389229e-12       0.000000000000e+00       1.691332657098e-11       2.119005727533e-12      -8.270725169718e-15 
   83       2.951997389146e-10       6.927976079002e-14      -1.669548334461e-12       0.000000000000e+00       1.641260714706e-11       2.066842121069e-12      -8.184139847688e-15 
   84       2.988709876105e-10       7.133422710171e-14      -1.748162826388e-12       0.000000000000e+00       1.592950800380e-11       2.016376504949e-12      -8.109510014629e-15 
   85       3.025740006755e-10       7.339886942216e-14      -1.827856964336e-12       0.000000000000e+00       1.546372171439e-11       1.967579979902e-12      -8.045789508002e-15 
   86       3.063092544202e-10       7.547204900090e-14      -1.908579952224e-12       0.000000000000e+00       1.501522204589e-11       1.920454095808e-12      -7.991530593292e-15 
   87       3.100769919396e-10       7.755208260757e-14      -1.990279311451e-12       0.000000000000e+00       1.458378089069e-11       1.874979570504e-12      -7.945066199532e-15 
   88       3.138772111761e-10       7.963724257624e-14      -2.072900890430e-12       0.000000000000e+00       1.416895989750e-11       1.831115415166e-12      -7.904502602040e-15 
   89       3.177096529829e-10       8.172575684969e-14      -2.156388874128e-12       0.000000000000e+00       1.377010210209e-11       1.788798059684e-12      -7.867712105150e-15 
   90       3.215737891864e-10       8.381580902369e-14      -2.240685793603e-12       0.000000000000e+00       1.338632355826e-11       1.747940478044e-12      -7.832325724946e-15 
   91       3.254688106494e-10       8.590553839130e-14      -2.325732535538e-12       0.000000000000e+00       1.301650496863e-11       1.708431313704e-12      -7.795725871996e-15 
   92       3.293936153339e-10       8.799303998717e-14      -2.411468351783e-12       0.000000000000e+00       1.265928331554e-11       1.670134004975e-12      -7.755039034085e-15 
   93       3.333471526488e-10       9.007639334052e-14      -2.497831431116e-12       0.000000000000e+00       1.231337530103e-11       1.632920775621e-12      -7.707783573782e-15 
   94       3.373295416649e-10       9.215375358466e-14      -2.584760692202e-12       0.000000000000e+00       1.197862149046e-11       1.596782354214e-12      -7.653940463594e-15 
   95       3.413410997915e-10       9.422327419599e-14      -2.672194279185e-12       0.000000000000e+00       1.165508446519e-11       1.561733216272e-12      -7.594181909779e-15 
   96       3.453819945246e-10       9.628307993878e-14      -2.760069040508e-12       0.000000000000e+00       1.134272724264e-11       1.527777798661e-12      -7.529245640241e-15 
   97       3.494522364008e-10       9.833126730351e-14      -2.848320546171e-12       0.000000000000e+00       1.104140946181e-11       1.494910103557e-12      -7.459936579927e-15 
   98       3.535516719505e-10       1.003659049452e-13      -2.936883104982e-12       0.000000000000e+00       1.075088356889e-11       1.463113302418e-12      -7.387128526208e-15 
   99       3.576799766516e-10       1.023850341220e-13      -3.025689781814e-12       0.000000000000e+00       1.047079100275e-11       1.432359339950e-12      -7.311765824266e-15 
  100       3.618366478830e-10       1.043866691332e-13      -3.114672414861e-12       0.000000000000e+00       1.020065838056e-11       1.402608538078e-12      -7.234865042488e-15 
  101       3.660209978785e-10       1.063687977578e-13      -3.203761632888e-12       0.000000000000e+00       9.939893683297e-12       1.373809199908e-12      -7.157516647845e-15 
  102       3.702321466797e-10       1.083293816931e-13      -3.292886872492e-12       0.000000000000e+00       9.687782441301e-12       1.345897213701e-12      -7.080886681284e-15 
  103       3.744690150903e-10       1.102663569926e-13      -3.381976395351e-12       0.000000000000e+00       9.443483919856e-12       1.318795656838e-12      -7.006218433118e-15 
  104       3.787305508306e-10       1.121776860131e-13      -3.470957965379e-12       0.000000000000e+00       9.206221725836e-12       1.292432771223e-12      -6.934574730507e-15 
  105       3.830164569728e-10       1.140615203024e-13      -3.559760947193e-12       0.000000000000e+00       8.975893167555e-12       1.266799507932e-12      -6.866021543331e-15 
  106       3.873265492281e-10       1.159160606347e-13      -3.648314524603e-12       0.000000000000e+00       8.752535482539e-12       1.241899053875e-12      -6.800336705375e-15 
  107       3.916605271030e-10       1.177395084599e-13      -3.736547090243e-12       0.000000000000e+00       8.536137109376e-12       1.217728962720e-12      -6.737258293263e-15 
