# dimensionless total [l(l+1)/2pi] C_l's
# for l=2 to 3000, i.e. number of multipoles equal to 2999
#
# -> if you prefer output in CAMB/HealPix/LensPix units/order, set 'format' to 'camb' in input file
# -> if you don't want to see such a header, set 'headers' to 'no' in input file
# -> for CMB lensing (phi), these are C_l^phi-phi for the lensing potential.
#    Remember the conversion factors:
#    C_l^dd (deflection) = l(l+1) C_l^phi-phi
#    C_l^gg (shear/convergence) = 1/4 (l(l+1))^2 C_l^phi-phi
#
# 1:l     2:TT                     3:EE                     4:TE                     5:BB                     6:phiphi                 7:TPhi                   8:Ephi               
    2       1.406437646228e-10       3.148576659420e-15       3.061691789160e-13       0.000000000000e+00       8.313393317591e-09       4.637462043259e-10      -1.604888871887e-12 
    3       1.330031726880e-10       4.028738789354e-15       3.445727945978e-13       0.000000000000e+00       5.092402395630e-09       3.271734109123e-10      -1.212475202257e-12 
    4       1.258788046130e-10       3.479738472025e-15       3.228923619230e-13       0.000000000000e+00       3.524945821206e-09       2.470252354919e-10      -7.904269780166e-13 
    5       1.205698125876e-10       2.323615300293e-15       2.763336570155e-13       0.000000000000e+00       2.622382594945e-09       1.947089937880e-10      -4.359924120020e-13 
    6       1.169092072632e-10       1.310348416451e-15       2.247368471938e-13       0.000000000000e+00       2.043158345189e-09       1.581428392857e-10      -1.757608059810e-13 
    7       1.145251135757e-10       7.250637683738e-16       1.793525123144e-13       0.000000000000e+00       1.644793114617e-09       1.314408251184e-10      -1.069344874914e-14 
    8       1.131345820433e-10       4.832022944109e-16       1.449277833111e-13       0.000000000000e+00       1.356837745476e-09       1.112833972328e-10       7.262221842575e-14 
    9       1.124022803706e-10       3.955958610516e-16       1.223889630089e-13       0.000000000000e+00       1.140729805201e-09       9.559200280823e-11       9.489452041078e-14 
   10       1.122448429236e-10       3.409206486862e-16       1.104625854715e-13       0.000000000000e+00       9.737187183001e-10       8.308377844919e-11       7.892370885062e-14 
   11       1.124696265270e-10       2.911211841031e-16       1.068454343995e-13       0.000000000000e+00       8.335220681358e-10       7.369631138760e-11       4.580466919405e-14 
   12       1.130055725584e-10       2.599287589077e-16       1.091036476756e-13       0.000000000000e+00       7.284403863639e-10       6.533521284309e-11       1.099583000141e-14 
   13       1.138071547659e-10       2.564495062327e-16       1.150515447912e-13       0.000000000000e+00       6.421653452962e-10       5.825136818724e-11      -1.563048704893e-14 
   14       1.148013097638e-10       2.750572312499e-16       1.229843830575e-13       0.000000000000e+00       5.703777996788e-10       5.232688303424e-11      -2.975910486406e-14 
   15       1.159313026774e-10       3.071239127565e-16       1.318166303701e-13       0.000000000000e+00       5.099493889048e-10       4.718868025574e-11      -3.223187081713e-14 
   16       1.172137027883e-10       3.508135023483e-16       1.409393572634e-13       0.000000000000e+00       4.585658571574e-10       4.273260294176e-11      -2.658276307970e-14 
   17       1.186118488060e-10       4.100834752113e-16       1.501758629827e-13       0.000000000000e+00       4.144826388446e-10       3.894507475226e-11      -1.717180766073e-14 
   18       1.201126578002e-10       4.886840021813e-16       1.596045695976e-13       0.000000000000e+00       3.762210918846e-10       3.561896081192e-11      -8.266511762178e-15 
   19       1.217132236106e-10       5.868824067134e-16       1.693374712678e-13       0.000000000000e+00       3.431630577428e-10       3.268794958340e-11      -2.119631773703e-15 
   20       1.233553613181e-10       7.033270965361e-16       1.794519760060e-13       0.000000000000e+00       3.140476612288e-10       3.007883090490e-11      -1.724107759683e-16 
   21       1.250596529596e-10       8.379013986767e-16       1.898895546740e-13       0.000000000000e+00       2.884166431695e-10       2.778039847709e-11      -1.875900936610e-15 
   22       1.268380381816e-10       9.907098930392e-16       2.004864239341e-13       0.000000000000e+00       2.656526011372e-10       2.575915707270e-11      -5.649691134226e-15 
   23       1.286789957428e-10       1.162374386369e-15       2.109729698687e-13       0.000000000000e+00       2.454506729378e-10       2.396365602088e-11      -9.951680687202e-15 
   24       1.305449285499e-10       1.353554187878e-15       2.210113329825e-13       0.000000000000e+00       2.273494440421e-10       2.231812453835e-11      -1.317262890950e-14 
   25       1.324483208105e-10       1.564736138222e-15       2.303551556342e-13       0.000000000000e+00       2.111032748018e-10       2.081902528596e-11      -1.468443526731e-14 
   26       1.344024328578e-10       1.796446643312e-15       2.387944514433e-13       0.000000000000e+00       1.963940934495e-10       1.947084853881e-11      -1.430089523393e-14 
   27       1.364146968084e-10       2.050112261422e-15       2.462563162198e-13       0.000000000000e+00       1.831456326776e-10       1.826479744391e-11      -1.248889764174e-14 
   28       1.384717346034e-10       2.327583204905e-15       2.527269641162e-13       0.000000000000e+00       1.711973178750e-10       1.717028047591e-11      -1.011628825490e-14 
   29       1.405453507027e-10       2.630730840169e-15       2.582160503342e-13       0.000000000000e+00       1.602589504533e-10       1.614545864537e-11      -8.145192203958e-15 
   30       1.426404199356e-10       2.960715309154e-15       2.627445863938e-13       0.000000000000e+00       1.502702191931e-10       1.519073814563e-11      -6.892449266677e-15 
   31       1.447622666755e-10       3.318421852724e-15       2.663556659440e-13       0.000000000000e+00       1.411569547891e-10       1.431426694700e-11      -6.484584319453e-15 
   32       1.469079272212e-10       3.704686699652e-15       2.690859085004e-13       0.000000000000e+00       1.327749287771e-10       1.351732292837e-11      -6.964338777699e-15 
   33       1.490845548835e-10       4.120469602942e-15       2.708479247331e-13       0.000000000000e+00       1.250784994285e-10       1.279383694351e-11      -8.009287274185e-15 
   34       1.512955447758e-10       4.566735447028e-15       2.715031632521e-13       0.000000000000e+00       1.179995223282e-10       1.212926294497e-11      -9.096386511147e-15 
   35       1.535376772014e-10       5.044401893931e-15       2.709098337918e-13       0.000000000000e+00       1.114326417636e-10       1.150571220054e-11      -9.702702567563e-15 
   36       1.558118393543e-10       5.554327663024e-15       2.689891854875e-13       0.000000000000e+00       1.053608405342e-10       1.092220629345e-11      -9.781472061234e-15 
   37       1.581143758668e-10       6.097312997870e-15       2.656811150830e-13       0.000000000000e+00       9.976511474402e-11       1.038062118249e-11      -9.448068690966e-15 
   38       1.604331383830e-10       6.674097176750e-15       2.609266213138e-13       0.000000000000e+00       9.458651522358e-11       9.879953871791e-12      -8.857629711998e-15 
   39       1.627538218896e-10       7.285373796050e-15       2.546782046355e-13       0.000000000000e+00       8.974741782384e-11       9.416996693921e-12      -8.182635499238e-15 
   40       1.650836894083e-10       7.931853549837e-15       2.469353145275e-13       0.000000000000e+00       8.523302398125e-11       8.989339676198e-12      -7.529357723216e-15 
   41       1.674344802850e-10       8.614215519743e-15       2.377210016125e-13       0.000000000000e+00       8.103148033420e-11       8.592908103083e-12      -6.997803702676e-15 
   42       1.698155850127e-10       9.333086507805e-15       2.270733585025e-13       0.000000000000e+00       7.710955982880e-11       8.220874638365e-12      -6.705567225311e-15 
   43       1.722331732704e-10       1.008904438358e-14       2.150258981960e-13       0.000000000000e+00       7.342495779713e-11       7.865800268824e-12      -6.751279055297e-15 
   44       1.746880198758e-10       1.088263626572e-14       2.015394738295e-13       0.000000000000e+00       6.997201722077e-11       7.527369276468e-12      -7.089006515481e-15 
   45       1.771764553989e-10       1.171436110480e-14       1.865504862197e-13       0.000000000000e+00       6.674723288783e-11       7.206700037930e-12      -7.616351479981e-15 
   46       1.796905079046e-10       1.258466148155e-14       1.699889883082e-13       0.000000000000e+00       6.373552216524e-11       6.904130902216e-12      -8.207228852549e-15 
   47       1.822175450957e-10       1.349392109682e-14       1.517781965166e-13       0.000000000000e+00       6.090932220964e-11       6.619152440387e-12      -8.710477109689e-15 
   48       1.847451038099e-10       1.444245881556e-14       1.318460683546e-13       0.000000000000e+00       5.823707912888e-11       6.350741243982e-12      -8.990096121710e-15 
   49       1.872778233381e-10       1.543051466993e-14       1.101650346184e-13       0.000000000000e+00       5.571365169488e-11       6.098630670543e-12      -9.062615288990e-15 
   50       1.898246705637e-10       1.645825559821e-14       8.672262766544e-14       0.000000000000e+00       5.333692697217e-11       5.862281903031e-12      -8.996060558375e-15 
   51       1.923940784620e-10       1.752577592667e-14       6.151051688207e-14       0.000000000000e+00       5.109876346298e-11       5.640467575972e-12      -8.872424276854e-15 
   52       1.949938529038e-10       1.863309468378e-14       3.452463566347e-14       0.000000000000e+00       4.898456749928e-11       5.431224512305e-12      -8.788399575382e-15 
   53       1.976301698896e-10       1.978019543654e-14       5.761777522598e-15       0.000000000000e+00       4.697787908105e-11       5.232410950353e-12      -8.831611215758e-15 
   54       2.003044790510e-10       2.096716400797e-14      -2.479193546712e-14       0.000000000000e+00       4.507648889230e-11       5.043655238568e-12      -9.000442069436e-15 
   55       2.030156414804e-10       2.219408149168e-14      -5.715226506362e-14       0.000000000000e+00       4.327972737253e-11       4.864825860814e-12      -9.264870516502e-15 
   56       2.057606412301e-10       2.346098394696e-14      -9.133360612803e-14       0.000000000000e+00       4.158360927178e-11       4.695449383231e-12      -9.588883011031e-15 
   57       2.085344539800e-10       2.476786149586e-14      -1.273490076893e-13       0.000000000000e+00       3.998062008243e-11       4.534688536592e-12      -9.930181062946e-15 
   58       2.113299157046e-10       2.611465742028e-14      -1.652101940090e-13       0.000000000000e+00       3.845950247089e-11       4.381320298657e-12      -1.023988821987e-14 
   59       2.141401309767e-10       2.750119293293e-14      -2.049231243198e-13       0.000000000000e+00       3.700835693422e-11       4.234092084255e-12      -1.047353339071e-14 
   60       2.169666492545e-10       2.892692313978e-14      -2.464734200609e-13       0.000000000000e+00       3.562526967901e-11       4.092936688527e-12      -1.062764484359e-14 
   61       2.198129586347e-10       3.039112270835e-14      -2.898375846276e-13       0.000000000000e+00       3.430977978722e-11       3.958001254785e-12      -1.071115165879e-14 
   62       2.226820688483e-10       3.189295185833e-14      -3.349870396288e-13       0.000000000000e+00       3.305968284566e-11       3.829285059906e-12      -1.073494200306e-14 
   63       2.255764660171e-10       3.343145293917e-14      -3.818879947204e-13       0.000000000000e+00       3.187092972434e-11       3.706630413902e-12      -1.071195236035e-14 
   64       2.284980674108e-10       3.500554700761e-14      -4.305013174389e-13       0.000000000000e+00       3.073752535486e-11       3.589713559482e-12      -1.065725676252e-14 
   65       2.314483645241e-10       3.661413799503e-14      -4.807901300772e-13       0.000000000000e+00       2.965318444873e-11       3.478147210279e-12      -1.058511683738e-14 
   66       2.344289891500e-10       3.825645853784e-14      -5.327447626885e-13       0.000000000000e+00       2.861693357330e-11       3.371833846699e-12      -1.049920538478e-14 
   67       2.374411866691e-10       3.993179148646e-14      -5.863628676265e-13       0.000000000000e+00       2.762851806116e-11       3.270671195230e-12      -1.040046571362e-14 
   68       2.404855990792e-10       4.163936837308e-14      -6.416422431797e-13       0.000000000000e+00       2.668669865578e-11       3.174441326043e-12      -1.028997226717e-14 
   69       2.435622250203e-10       4.337836899874e-14      -6.985809195460e-13       0.000000000000e+00       2.578919943506e-11       3.082804675315e-12      -1.016893484164e-14 
   70       2.466703797986e-10       4.514792102036e-14      -7.571772448067e-13       0.000000000000e+00       2.493265573493e-11       2.995294067556e-12      -1.003870280487e-14 
   71       2.498086554114e-10       4.694709953787e-14      -8.174299709013e-13       0.000000000000e+00       2.411256207280e-11       2.911308737930e-12      -9.900769314904e-15 
   72       2.529756061919e-10       4.877489534480e-14      -8.793319493335e-13       0.000000000000e+00       2.332443217023e-11       2.830265567595e-12      -9.756755865841e-15 
   73       2.561720469421e-10       5.063011354234e-14      -9.428496262831e-13       0.000000000000e+00       2.256765252903e-11       2.752099681285e-12      -9.608353116287e-15 
   74       2.593991257386e-10       5.251145462745e-14      -1.007939748626e-12       0.000000000000e+00       2.184227788249e-11       2.676849584196e-12      -9.457376273751e-15 
   75       2.626576143871e-10       5.441754299575e-14      -1.074555346559e-12       0.000000000000e+00       2.114786064855e-11       2.604506115232e-12      -9.305787466450e-15 
   76       2.659478850140e-10       5.634692581316e-14      -1.142645673679e-12       0.000000000000e+00       2.048342652679e-11       2.535010058659e-12      -9.155699512774e-15 
   77       2.692698866574e-10       5.829807188754e-14      -1.212156147060e-12       0.000000000000e+00       1.984745009553e-11       2.468249755777e-12      -9.009379690768e-15 
   78       2.726231218586e-10       6.026937054030e-14      -1.283028287331e-12       0.000000000000e+00       1.923783040882e-11       2.404058716579e-12      -8.869253507600e-15 
   79       2.760066232529e-10       6.225913047801e-14      -1.355199658754e-12       0.000000000000e+00       1.865186659347e-11       2.342213231412e-12      -8.737908469034e-15 
   80       2.794194329983e-10       6.426563191338e-14      -1.428608583014e-12       0.000000000000e+00       1.808692944966e-11       2.282491029574e-12      -8.617515955312e-15 
   81       2.828621884455e-10       6.628729583461e-14      -1.503209355185e-12       0.000000000000e+00       1.754266425924e-11       2.224864241143e-12      -8.507972931119e-15 
   82       2.863357704009e-10       6.832254221015e-14      -1.578959573245e-12       0.000000000000e+00       1.701912777346e-11       2.169335743003e-12      -8.408442883969e-15 
   83       2.898408108690e-10       7.036973921023e-14      -1.655815627108e-12       0.000000000000e+00       1.651611485112e-11       2.115879849906e-12      -8.317902155583e-15 
   84       2.933776789552e-10       7.242720306463e-14      -1.733732727102e-12       0.000000000000e+00       1.603314694462e-11       2.064441056628e-12      -8.235132935547e-15 
   85       2.969464667689e-10       7.449319792038e-14      -1.812664932449e-12       0.000000000000e+00       1.556946058591e-11       2.014932780133e-12      -8.158716254985e-15 
   86       3.005469753267e-10       7.656593569947e-14      -1.892565179750e-12       0.000000000000e+00       1.512399587250e-11       1.967236101734e-12      -8.087024980220e-15 
   87       3.041787004551e-10       7.864357595662e-14      -1.973385311458e-12       0.000000000000e+00       1.469538495343e-11       1.921198509258e-12      -8.018216806441e-15 
   88       3.078408186939e-10       8.072422573695e-14      -2.055076104361e-12       0.000000000000e+00       1.428194051529e-11       1.876632639204e-12      -7.950227251371e-15 
   89       3.115325203113e-10       8.280596744597e-14      -2.137585961699e-12       0.000000000000e+00       1.388205814610e-11       1.833362489466e-12      -7.881239902565e-15 
   90       3.152540989462e-10       8.488694777978e-14      -2.220856692305e-12       0.000000000000e+00       1.349552086012e-11       1.791373107215e-12      -7.811196970389e-15 
   91       3.190060077184e-10       8.696530254787e-14      -2.304827118738e-12       0.000000000000e+00       1.312237894900e-11       1.750682173957e-12      -7.740513885430e-15 
   92       3.227885185596e-10       8.903913017630e-14      -2.389434363048e-12       0.000000000000e+00       1.276254908156e-11       1.711294086260e-12      -7.669623280505e-15 
   93       3.266017133170e-10       9.110649198504e-14      -2.474613855234e-12       0.000000000000e+00       1.241580899016e-11       1.673199409080e-12      -7.598975134191e-15 
   94       3.304454748566e-10       9.316541246542e-14      -2.560299341705e-12       0.000000000000e+00       1.208179215712e-11       1.636374329092e-12      -7.529036914363e-15 
   95       3.343194781657e-10       9.521387955743e-14      -2.646422893739e-12       0.000000000000e+00       1.175998250114e-11       1.600780108026e-12      -7.460293721721e-15 
   96       3.382231814571e-10       9.724984492717e-14      -2.732914915941e-12       0.000000000000e+00       1.144970906368e-11       1.566362535993e-12      -7.393248433330e-15 
   97       3.421558172715e-10       9.927122424422e-14      -2.819704154706e-12       0.000000000000e+00       1.115014069540e-11       1.533051384821e-12      -7.328421846147e-15 
   98       3.461163835812e-10       1.012758974590e-13      -2.906717706672e-12       0.000000000000e+00       1.086028074256e-11       1.500759861382e-12      -7.266352820556e-15 
   99       3.501038987369e-10       1.032617586118e-13      -2.993882331001e-12       0.000000000000e+00       1.057919581606e-11       1.469405288671e-12      -7.207455796143e-15 
  100       3.541182267438e-10       1.052268727105e-13      -3.081128579987e-12       0.000000000000e+00       1.030675055731e-11       1.438975673118e-12      -7.151570000993e-15 
  101       3.581593528949e-10       1.071693416918e-13      -3.168387271950e-12       0.000000000000e+00       1.004296755873e-11       1.409471594278e-12      -7.098346361370e-15 
  102       3.622271247292e-10       1.090872577388e-13      -3.255588263570e-12       0.000000000000e+00       9.787800120908e-12       1.380885532546e-12      -7.047382867898e-15 
  103       3.663212463331e-10       1.109787041585e-13      -3.342660474152e-12       0.000000000000e+00       9.541129776348e-12       1.353201579794e-12      -6.998222990266e-15 
  104       3.704412726412e-10       1.128417562597e-13      -3.429531909891e-12       0.000000000000e+00       9.302763813270e-12       1.326395150006e-12      -6.950354091944e-15 
  105       3.745866037381e-10       1.146744822311e-13      -3.516129688133e-12       0.000000000000e+00       9.072432799379e-12       1.300432689920e-12      -6.903205844893e-15 
  106       3.787564791599e-10       1.164749440183e-13      -3.602380061640e-12       0.000000000000e+00       8.849788105632e-12       1.275271389662e-12      -6.856148644280e-15 
  107       3.829499721948e-10       1.182411982024e-13      -3.688208442852e-12       0.000000000000e+00       8.634399430020e-12       1.250858893382e-12      -6.808492023183e-15 
